Frequency,Gain,Phase
1.0,0.6247506794559862,-0.009407786703963103
1.023292992280754,0.6247389541509476,-0.009626104353322928
1.0471285480508994,0.6247266786376067,-0.009849448936549857
1.0715193052376062,0.6247138272150748,-0.010077933392571193
1.0964781961431846,0.6247003729932542,-0.010311672996242895
1.1220184543019631,0.6246862878389028,-0.010550785391957628
1.1481536214968824,0.6246715423193564,-0.010795390626581696
1.174897554939529,0.6246561056438175,-0.011045611181605018
1.2022644346174125,0.6246399456021205,-0.011301572004379402
1.2302687708123812,0.6246230285008721,-0.011563400538310198
1.2589254117941668,0.6246053190968711,-0.011831226751855627
1.2882495516931336,0.6245867805277072,-0.012105183166177133
1.3182567385564068,0.6245673742394314,-0.01238540488127139
1.3489628825916533,0.624547059911199,-0.012672029600402113
1.3803842646028845,0.6245257953767706,-0.012965197652636035
1.412537544622754,0.6245035365427681,-0.013265052013272422
1.445439770745927,0.6244802373035713,-0.013571738321940313
1.4791083881682068,0.6244558494527441,-0.013885404898120764
1.5135612484362075,0.6244303225908777,-0.014206202753834028
1.5488166189124806,0.6244036040297367,-0.014534285603212743
1.5848931924611127,0.6243756386925928,-0.014869809868662327
1.6218100973589291,0.6243463690106347,-0.015212934683288819
1.6595869074375598,0.624315734815339,-0.015563821889252191
1.6982436524617435,0.6242836732266881,-0.015922636031679337
1.7378008287493745,0.6242501185371303,-0.016289544347745877
1.7782794100389216,0.624215002091167,-0.016664716750510403
1.819700858609982,0.624178252160468,-0.0170483258070553
1.862087136662866,0.6241397938144103,-0.017440546710460667
1.9054607179632457,0.6240995487859478,-0.01784155724510564
1.9498445997580438,0.6240574353327197,-0.01825153774475933
1.995262314968878,0.6240133680933182,-0.01867067104288925
2.0417379446695274,0.6239672579386393,-0.019099142414579322
2.0892961308540374,0.6239190118182557,-0.01953713950941123
2.13796208950223,0.6238685326017588,-0.019984852274624258
2.1877616239495503,0.6238157189150315,-0.020442472867826623
2.238721138568337,0.6237604649714308,-0.020910195558489122
2.2908676527677705,0.6237026603978687,-0.021388216617405975
2.3442288153199193,0.623642190055816,-0.021876734193262273
2.3988329190194877,0.6235789338572536,-0.022375948175398105
2.4547089156850275,0.6235127665756415,-0.022886060041809823
2.511886431509577,0.6234435576519899,-0.023407272691377476
2.5703957827688604,0.6233711709961529,-0.023939790259253437
2.630267991895378,0.6232954647835005,-0.024483817914293556
2.691534803926912,0.6232162912471614,-0.025039561637355955
2.7542287033381627,0.6231334964660689,-0.025607227979235814
2.8183829312644497,0.6230469201490927,-0.02618702379694693
2.8840315031266015,0.6229563954155889,-0.026779155967002692
2.951209226666381,0.6228617485727536,-0.027383831074291157
3.0199517204020117,0.6227627988902315,-0.028001255075080052
3.0902954325135856,0.6226593583724909,-0.028631632932631636
3.162277660168374,0.6225512315295582,-0.02927516822384918
3.2359365692962774,0.6224382151467722,-0.029932062715324552
3.3113112148259054,0.6223200980543145,-0.030602515907102907
3.38844156139202,0.6221966608973559,-0.03128672454243247
3.4673685045253104,0.6220676759077651,-0.03198488208172332
3.5481338923357484,0.6219329066784236,-0.03269717813889874
3.630780547701007,0.6217921079413192,-0.03342379787829
3.7153522909717185,0.6216450253506924,-0.03416492137020005
3.801893963205605,0.6214913952726645,-0.0349207229032434
3.8904514499427987,0.6213309445828923,-0.03569137025156425
3.9810717055349647,0.6211633904739581,-0.03647702389503827
4.073802778041119,0.6209884402743499,-0.03727783619058421
4.168693834703346,0.6208057912810528,-0.03809395049274402
4.265795188015918,0.6206151306079448,-0.03892550022174396
4.365158322401651,0.6204161350523684,-0.03977260787732054
4.466835921509622,0.6202084709824371,-0.040635383996690214
4.570881896148741,0.6199917942478254,-0.04151392605516207
4.677351412871972,0.6197657501169928,-0.04240831730803967
4.786300923226373,0.6195299732439957,-0.04331862557263883
4.897788193684452,0.6192840876682426,-0.04424490194945836
5.011872336272712,0.6190277068507576,-0.04518717948179408
5.128613839913638,0.6187604337507333,-0.046145471753374113
5.248074602497715,0.6184818609463407,-0.04711977142393058
5.370317963702516,0.6181915708039869,-0.048110048703004
5.495408738576233,0.6178891357003807,-0.04911624976270872
5.623413251903478,0.6175741183019665,-0.050138295090679706
5.754399373371556,0.6172460719064404,-0.05117607778495917
5.888436553555876,0.6169045408512139,-0.05222946179319494
6.025595860743564,0.6165490609938117,-0.053298280099187675
6.165950018614807,0.6161791602692877,-0.05438233286055976
6.309573444801917,0.615794359329796,-0.05548138550212509
6.4565422903465395,0.6153941722714759,-0.056595166770409024
6.606934480075944,0.6149781074537847,-0.057723366755712636
6.7608297539198015,0.6145456684163193,-0.05886563488912563
6.918309709189348,0.6140963548980338,-0.06002157792297643
7.079457843841362,0.6136296639635429,-0.06119075790434886
7.244359600749883,0.6131450912409082,-0.06237269015250804
7.413102413009157,0.6126421322749374,-0.06356684125233715
7.585775750291819,0.6121202839995541,-0.06477262707719966
7.762471166286898,0.6115790463322364,-0.06598941085599261
7.9432823472427945,0.6110179238928397,-0.0672165013005329
8.128305161640972,0.6104364278483484,-0.06845315081080966
8.31763771102669,0.609834077884179,-0.0696985537770207
8.511380382023743,0.6092104043016439,-0.07095184499867924
8.709635899560784,0.6085649502400159,-0.07221209824239132
8.912509381337431,0.6078972740203616,-0.07347832496115854
9.120108393559072,0.6072069516068913,-0.07474947319921346
9.332543007969884,0.606493579180039,-0.07602442670742045
9.549925860214332,0.6057567758138356,-0.07730200429514535
9.772372209558078,0.6049961862483634,-0.0785809594451697
9.99999999999997,0.6042114837462221,-0.0798599802186721
10.23292992280751,0.6034023730199893,-0.08113768947747335
10.471285480508964,0.6025685932156425,-0.08241264545061748
10.715193052376032,0.6017099209348701,-0.0836833426718823
10.964781961431816,0.6008261732771235,-0.08494821331396549
11.220184543019599,0.5999172108802346,-0.08620562894381541
11.481536214968791,0.5989829409364207,-0.0874539027218579
11.748975549395258,0.598023320158617,-0.08869129206567547
12.02264434617409,0.597038357670314,-0.08991600179599439
12.302687708123775,0.5960281177904972,-0.09112618777962464
12.58925411794163,0.5949927226839488,-0.09231996108026713
12.882495516931296,0.5939323548460792,-0.09349539262383946
13.182567385564026,0.592847259390727,-0.09465051838021588
13.489628825916489,0.5917377461089598,-0.09578334505803025
13.8038426460288,0.5906041912669561,-0.09689185630349864
14.125375446227492,0.5894470391115161,-0.09797401938813997
14.454397707459222,0.5882668030527153,-0.09902779236385524
14.79108388168202,0.5870640664946932,-0.10005113165717577
15.135612484362026,0.5858394832875635,-0.10104200006766464
15.488166189124756,0.5845937777759784,-0.10199837512859829
15.848931924611076,0.5833277444229448,-0.1029182577812503
16.218100973589237,0.5820422469910745,-0.10379968130749588
16.595869074375543,0.580738217267538,-0.10464072045917144
16.982436524617377,0.5794166533234988,-0.10543950071681256
17.378008287493685,0.5780786173037274,-0.10619420760517405
17.782794100389157,0.5767252327473382,-0.10690309598846628
18.197008586099763,0.5753576814460637,-0.10756449926463374
18.620871366628602,0.5739771998521396,-0.10817683837539012
19.0546071796324,0.5725850750535589,-0.10873863054719671
19.49844599758038,0.5711826403401181,-0.10924849767804005
19.95262314968872,0.5697712703891753,-0.10970517428576719
20.417379446695215,0.5683523761052799,-0.11010751493593761
20.892961308540315,0.566927399152693,-0.11045450107065483
21.37962089502224,0.5654978062242281,-0.11074524716462576
21.877616239495442,0.5640650830936481,-0.1109790061407342
22.387211385683308,0.5626307285020495,-0.11115517398461393
22.90867652767764,0.5611962479311058,-0.11127329350597971
23.442288153199126,0.5597631473177296,-0.111333057203673
23.988329190194808,0.5583329267655718,-0.11133430920137095
24.547089156850202,0.5569070743088075,-0.11127704623149176
25.118864315095696,0.555487059782863,-0.11116141765583966
25.70395782768853,0.5540743288551089,-0.11098772452274666
26.302679918953707,0.5526702972661625,-0.11075641767169532
26.91534803926904,0.5512763453293146,-0.1104680949074213
27.542287033381545,0.549893812731831,-0.11012349727610873
28.183829312644416,0.548523993677534,-0.10972350448630779
28.840315031265934,0.5471681324052486,-0.10926912952643913
29.51209226666373,0.5458274191125122,-0.10876151253907104
30.19951720402003,0.5445029863084716,-0.10820191401939426
30.90295432513577,0.5431959056142824,-0.10759170741141413
31.622776601683654,0.5419071850236417,-0.10693237118022036
32.35936569296268,0.5406377666304609,-0.10622548044225041
33.11311214825896,0.5393885248252211,-0.10547269823772054
33.884415613920105,0.5381602649562993,-0.10467576653035654
34.67368504525301,0.5369537224476483,-0.10383649701927655
35.481338923357384,0.535769562359666,-0.10295676184639968
36.30780547700997,0.5346083793759963,-0.10203848428018608
37.15352290971708,0.5334706981953855,-0.10108362945295024
38.01893963205595,0.5323569743046097,-0.100094195224548
38.90451449942788,0.531267595105909,-0.09907220324005242
39.81071705534954,0.530202881370313,-0.0980196902432419
40.73802778041109,0.5291630889867166,-0.0969386997014615
41.68693834703335,0.5281484109755447,-0.0958312737908166
42.65795188015907,0.5271589797353098,-0.0946994457838737
43.65158322401639,0.5261948694902804,-0.09354523287516867
44.6683592150961,0.5252560989078,-0.09237062947300834
45.70881896148729,0.5243426338545004,-0.0911776009793806
46.7735141287196,0.5234543902616633,-0.08996807807336521
47.86300923226361,0.5225912370712921,-0.08874395150734024
48.97788193684438,0.5217529992359848,-0.08750706741956839
50.11872336272698,0.5209394607474089,-0.0862592231614874
51.286138399136235,0.5201503676700464,-0.08500216363323965
52.480746024977,0.519385431158826,-0.08373757811670321
53.70317963702501,0.5186443304412793,-0.08246709759152707
54.954087385762186,0.5179267157469003,-0.08119229251643997
56.23413251903463,0.5172322111684211,-0.07991467105538427
57.54399373371541,0.5165604174417143,-0.07863567772580597
58.88436553555861,0.5159109146329812,-0.07735669244469523
60.255958607435474,0.515283264723737,-0.07607902994667938
61.65950018614791,0.5146770140858855,-0.07480393954760028
63.09573444801901,0.5140916958408269,-0.07353260522651943
64.56542290346522,0.5135268320980921,-0.07226614599895158
66.06934480075925,0.5129819360704209,-0.07100561655429109
67.60829753919782,0.512456514063497,-0.06975200813083224
69.18309709189329,0.5119500673397246,-0.06850624960244642
70.79457843841342,0.5114620938564729,-0.06726920875184199
72.44359600749863,0.5109920898801422,-0.06604169370635436
74.13102413009136,0.5105395514782055,-0.06482445451335922
75.85775750291798,0.5101039758920652,-0.06361818483365315
77.62471166286876,0.509684862794158,-0.062423523732458096
79.43282347242773,0.5092817154332119,-0.06124105754907377
81.2830516164095,0.5088940416719578,-0.060071321827583776
83.17637711026666,0.5085213549218992,-0.05891480329241478
85.1138038202372,0.5081631749799714,-0.05777194185392563
87.0963589956076,0.5078190287720792,-0.05664313263055362
89.12509381337408,0.5074884510086001,-0.05552872797536074
91.20108393559049,0.507170984756974,-0.05442903949608642
93.3254300796986,0.5068661819365005,-0.05334434005902426
95.49925860214309,0.506573603740406,-0.05227486576818855
97.72372209558054,0.506292820990168,-0.05122081791232076
99.99999999999946,0.5060234144269559,-0.05018236487329918
102.32929922807486,0.5057649749449195,-0.04915964399046482
104.71285480508938,0.5055171037708888,-0.048152763376247514
107.15193052376004,0.5052794125948724,-0.04716180367928749
109.64781961431788,0.5050515236555564,-0.04618681979198277
112.2018454301957,0.5048330697848087,-0.04522784250006735
114.81536214968762,0.5046236944149864,-0.04428488007243209
117.48975549395227,0.5044230515526453,-0.04335791978994977
120.22644346174059,0.5042308057220372,-0.04244692941255484
123.02687708123743,0.5040466318815794,-0.04155185858426308
125.89254117941597,0.5038702153162807,-0.040672640176202875
128.82495516931263,0.5037012515089009,-0.039809191568064485
131.82567385563993,0.5035394459924389,-0.038961415868667186
134.89628825916455,0.5033845141863512,-0.03812920307659639
138.03842646028764,0.5032361812187227,-0.03731243118207553
141.25375446227457,0.503094181736444,-0.03651096721142019
144.54397707459188,0.5029582597052793,-0.03572466821556898
147.91083881681985,0.502828168201556,-0.03495338220430776
151.3561248436199,0.5027036691970597,-0.0341969490278998
154.8816618912472,0.5025845333385748,-0.033455201207907036
158.4893192461104,0.5024705397233815,-0.03272796471904102
162.18100973589202,0.502361475671898,-0.03201505972391763
165.95869074375506,0.5022571364985374,-0.0313163012626081
169.8243652461734,0.502157325281743,-0.030631499898885514
173.78008287493645,0.5020618526340652,-0.02996046232505945
177.82794100389117,0.5019705364730509,-0.02930299192727415
181.9700858609972,0.5018832017936258,-0.028658889313121237
186.20871366628555,0.5017996804425757,-0.02802795280338395
190.54607179632347,0.5017198108956556,-0.02740997888969178
194.98445997580325,0.5016434380377889,-0.026804762659818994
199.52623149688665,0.5015704129467569,-0.02621209819231298
204.1737944669516,0.5015005926807223,-0.02563177892208634
208.92961308540256,0.5014338400698778,-0.02506359797855141
213.7962089502218,0.5013700235124647,-0.024507348497821692
218.77616239495381,0.5013090167753617,-0.023962823910445637
223.87211385683247,0.5012506987994085,-0.023429818206080883
229.08676527677576,0.5011949535095892,-0.02290812617645886
234.42288153199064,0.5011416696301731,-0.022397543637931453
239.88329190194744,0.5010907405048797,-0.021897867634833906
245.4708915685014,0.5010420639221079,-0.021408896624840766
251.18864315095632,0.5009955419452532,-0.02093043064743683
257.03957827688464,0.5009510807481055,-0.02046227147656935
263.0267991895364,0.5009085904553138,-0.020004222758495407
269.15348039268974,0.500867984987881,-0.019556090135786058
275.4228703338148,0.5008291819136385,-0.019117681358398787
281.8382931264435,0.5007921023026431,-0.01868880638268178
288.4031503126586,0.5007566705874258,-0.018269277459126335
295.12092266663655,0.5007228144280051,-0.01785890920963862
301.9951720401995,0.5006904645815886,-0.01745751869506003
309.02954325135687,0.5006595547768591,-0.017064925473622112
316.2277660168357,0.5006300215927515,-0.016680951650984367
323.593656929626,0.500601804341614,-0.016305421922464276
331.13112148258875,0.5005748449566495,-0.015938163608033035
338.84415613920015,0.5005490878835226,-0.0155790066806167
346.73685045252915,0.5005244799760267,-0.015227783788208889
354.8133892335729,0.5005009703956941,-0.014884330270271145
363.0780547700987,0.5004785105152355,-0.01454848416886663
371.5352290971698,0.5004570538256976,-0.014220086234945629
380.1893963205584,0.5004365558472226,-0.01389897993017456
389.04514499427773,0.500416974043299,-0.013585011424675296
398.1071705534943,0.5003982677383887,-0.013278029591017591
407.3802778041097,0.5003803980388227,-0.012977885994785762
416.8693834703323,0.5003633277568529,-0.01268443488201876
426.5795188015895,0.5003470213377561,-0.01239753316380377
436.5158322401627,0.5003314447898808,-0.012117040398284092
446.6835921509598,0.5003165656175355,-0.011842818770324507
457.0881896148716,0.5003023527566176,-0.01157473306906114
467.7351412871947,0.5002887765128813,-0.011312650663546552
478.63009232263477,0.5002758085027491,-0.01105644147668662
489.7788193684425,0.5002634215965749,-0.010805977957651638
501.1872336272685,0.5002515898642628,-0.010561135052931386
512.861383991361,0.5002402885231553,-0.010321790176191377
524.8074602497686,0.5002294938881038,-0.010087823177076577
537.0317963702487,0.500219183323637,-0.009859116309097705
549.5408738576203,0.5002093351981446,-0.0096355541967257
562.3413251903447,0.5001999288400003,-0.009417023801809924
575.4399373371524,0.5001909444955458,-0.009203414389427764
588.8436553555844,0.5001823632888596,-0.008994617493264202
602.559586074353,0.5001741671832448,-0.0087905268806128
616.5950018614773,0.5001663389443624,-0.00859103851708236
630.9573444801882,0.5001588621049439,-0.008396050531086281
645.6542290346504,0.5001517209310218,-0.008205463178186271
660.6934480075907,0.5001449003896128,-0.008019178805355432
676.0829753919763,0.5001383861177963,-0.007837101815220578
691.8309709189309,0.5001321643931278,-0.007659138630338847
707.9457843841321,0.5001262221053371,-0.007485197657558426
724.4359600749841,0.5001205467292518,-0.007315189252509167
741.3102413009113,0.5001151262988981,-0.0071490256842647116
758.5775750291774,0.5001099493827307,-0.006986621100213786
776.2471166286851,0.5001050050599413,-0.006827891491174946
794.3282347242747,0.5001002828978018,-0.006672754656785619
812.8305161640923,0.5000957729299996,-0.006521130171193342
831.7637711026639,0.5000914656359196,-0.006372939349074163
851.1380382023692,0.500087351920835,-0.006228105212000608
870.9635899560732,0.5000834230969707,-0.006086552455179051
891.2509381337379,0.5000796708653934,-0.005948207414574232
912.0108393559019,0.5000760872987031,-0.005812998034436411
933.254300796983,0.5000726648244849,-0.0056808538352447376
954.9925860214277,0.5000693962094909,-0.005551705882078769
977.2372209558022,0.500066274544519,-0.005425486753428095
999.9999999999912,0.5000632932299618,-0.005302130510448854
1023.2929922807451,0.5000604459619921,-0.005181572666674276
1047.1285480508902,0.5000577267193602,-0.0050637501581851305
1071.5193052375969,0.5000551297507775,-0.004948601314244795
1096.4781961431752,0.5000526495628556,-0.0048360658284025745
1122.0184543019534,0.5000502809085839,-0.004726084730067814
1148.1536214968723,0.5000480187763168,-0.004618600356556464
1174.8975549395188,0.5000458583792485,-0.004513556325610913
1202.264434617402,0.5000437951453587,-0.004410897508393129
1230.2687708123703,0.5000418247078018,-0.0043105700029503645
1258.9254117941557,0.5000399428957265,-0.004212521108152147
1288.2495516931222,0.5000381457255018,-0.004116699298096586
1318.256738556395,0.5000364293923351,-0.004023054196983558
1348.9628825916411,0.5000347902622619,-0.00393153655445181
1380.384264602872,0.5000332248644961,-0.003842098221376556
1412.537544622741,0.5000317298841163,-0.003754692126123856
1445.4397707459138,0.5000303021550832,-0.003669272251257527
1479.1083881681934,0.500028938653565,-0.003585793610694257
1513.5612484361939,0.5000276364915637,-0.003504212227301994
1548.8166189124668,0.5000263929108226,-0.0034244851109368063
1584.8931924610986,0.5000252052770104,-0.003346570236912852
1621.8100973589146,0.5000240710741608,-0.0032704265249000578
1659.5869074375448,0.5000229878993636,-0.003196013818243982
1698.243652461728,0.5000219534576922,-0.003123292863702043
1737.8008287493587,0.5000209655573575,-0.003052225291590292
1778.2794100389056,0.5000200221050805,-0.002982773596334736
1819.7008586099657,0.5000191211016691,-0.0029149011174212135
1862.0871366628492,0.5000182606377956,-0.002848572020737559
1905.4607179632285,0.5000174388899619,-0.0027837512803020326
1949.844599758026,0.5000166541166459,-0.002720404660371659
1995.26231496886,0.5000159046546195,-0.0026584986979243013
2041.7379446695093,0.5000151889154336,-0.0025980006855081447
2089.296130854019,0.500014505382059,-0.0025388786544523366
2137.962089502211,0.5000138526056777,-0.0024811013584325145
2187.7616239495305,0.5000132292026196,-0.0024246382573849365
2238.721138568317,0.5000126338514352,-0.002369459501763008
2290.86765276775,0.5000120652900999,-0.002315535917129967
2344.2288153198983,0.5000115223133441,-0.0022628389890815576
2398.832919019466,0.5000110037701029,-0.0022113408484925865
2454.708915685005,0.5000105085610796,-0.0021610142570812436
