Frequency,Gain,Phase
1.0,0.24972285285801815,-0.009383224546755668
1.023292992280754,0.24970981277912535,-0.009599785267696028
1.0471285480508994,0.24969616020824748,-0.009821247236673781
1.0715193052376062,0.24968186647863533,-0.0100477143998399
1.0964781961431846,0.24966690159166666,-0.010279292395657518
1.1220184543019631,0.24965123415591534,-0.010516088542424064
1.1481536214968824,0.24963483132352546,-0.010758211821819469
1.174897554939529,0.24961765872377956,-0.011005772858128149
1.2022644346174125,0.2495996803937468,-0.011258883892755691
1.2302687708123812,0.24958085870589442,-0.011517658753632814
1.2589254117941668,0.2495611542925412,-0.011782212819069864
1.2882495516931336,0.24954052596702753,-0.01205266297559144
1.3182567385564068,0.24951893064147476,-0.012329127569247096
1.3489628825916533,0.2494963232410012,-0.012611726349856486
1.3803842646028845,0.2494726566142595,-0.012900580407608017
1.412537544622754,0.24944788144015692,-0.01319581210138725
1.445439770745927,0.24942194613061663,-0.013497544978166666
1.4791083881682068,0.24939479672923343,-0.013805903682738865
1.5135612484362075,0.24936637680567725,-0.014121013857024665
1.5488166189124806,0.24933662734569428,-0.014443002028131414
1.5848931924611127,0.24930548663654792,-0.014771995484277522
1.6218100973589291,0.24927289014775048,-0.015108122137636982
1.6595869074375598,0.2492387704069218,-0.015451510373088872
1.6982436524617435,0.24920305687062178,-0.015802288881786
1.7378008287493745,0.24916567578999166,-0.016160586478378768
1.7782794100389216,0.249126550071049,-0.01652653190064892
1.819700858609982,0.2490855991294722,-0.016900253590220002
1.862087136662866,0.24904273873971933,-0.017281879452917988
1.9054607179632457,0.24899788087832145,-0.017671536597255462
1.9498445997580438,0.24895093356119924,-0.01806935104940683
1.995262314968878,0.24890180067484774,-0.018475447442928717
2.0417379446695274,0.24885038180125038,-0.01888994868135875
2.0892961308540374,0.24879657203637556,-0.019312975571697654
2.13796208950223,0.2487402618021294,-0.019744646426641907
2.1877616239495503,0.2486813366516416,-0.02018507663329076
2.238721138568337,0.24861967706776938,-0.020634378185892126
2.2908676527677705,0.24855515825472652,-0.021092659180032416
2.3442288153199193,0.24848764992275105,-0.02156002326549464
2.3988329190194877,0.2484170160657468,-0.022036569054827104
2.4547089156850275,0.24834311473185636,-0.022522389484464583
2.511886431509577,0.2482657977869399,-0.02301757112503419
2.5703957827688604,0.24818491067096968,-0.02352219343725662
2.630267991895378,0.2481002921473715,-0.024036327969614392
2.691534803926912,0.2480117740453856,-0.02456003749371069
2.7542287033381627,0.24791918099555296,-0.02509337507297483
2.8183829312644497,0.24782233015847907,-0.025636383060090456
2.8840315031266015,0.24772103094707468,-0.02618909201822457
2.951209226666381,0.24761508474252447,-0.02675151956082085
3.0199517204020117,0.24750428460429993,-0.02732366910438897
3.0902954325135856,0.24738841497459294,-0.027905528528370728
3.162277660168374,0.24726725137762484,-0.028497068735793128
3.2359365692962774,0.247140560114364,-0.029098242108029963
3.3113112148259054,0.2470080979532794,-0.0297089808465818
3.38844156139202,0.24686961181784894,-0.030329195194353308
3.4673685045253104,0.24672483847165846,-0.030958771528453444
3.5481338923357484,0.2465735042020409,-0.03159757031606746
3.630780547701007,0.24641532450333808,-0.032245423924451934
3.7153522909717185,0.2462500037610084,-0.03290213427558111
3.801893963205605,0.2460772349379636,-0.033567470335428284
3.8904514499427987,0.24589669926468166,-0.03424116542729775
3.9810717055349647,0.24570806593483233,-0.03492291435802599
4.073802778041119,0.24551099180835056,-0.035612370345262316
4.168693834703346,0.24530512112410774,-0.036309141733391136
4.265795188015918,0.24509008522457054,-0.03701278848500386
4.365158322401651,0.24486550229508705,-0.03772281843414188
4.466835921509622,0.24463097712071386,-0.038438683286829665
4.570881896148741,0.24438610086379325,-0.039159774353694894
4.677351412871972,0.2441304508658067,-0.03988541799873793
4.786300923226373,0.24386359047736608,-0.040614870787556
4.897788193684452,0.24358506892057052,-0.04134731431757066
5.011872336272712,0.24329442118834255,-0.04208184971203594
5.128613839913638,0.24299116798576875,-0.042817491758833946
5.248074602497715,0.24267481571891017,-0.04355316267430222
5.370317963702516,0.24234485653701246,-0.044287685471573905
5.495408738576233,0.24200076843453583,-0.045019776912183736
5.623413251903478,0.24164201541994912,-0.045748040018974624
5.754399373371556,0.2412680477587718,-0.0464709561276715
5.888436553555876,0.24087830229892812,-0.04718687645386989
6.025595860743564,0.24047220288707266,-0.047894013151626315
6.165950018614807,0.2400491608851768,-0.0485904298393696
6.309573444801917,0.23960857579731148,-0.04927403156847605
6.4565422903465395,0.2391498360172393,-0.04994255420960666
6.606934480075944,0.23867231970812208,-0.050593553231808606
6.7608297539198015,0.23817539582636346,-0.05122439184946703
6.918309709189348,0.23765842530233483,-0.05183222851249074
7.079457843841362,0.23712076239147764,-0.05241400371567972
7.244359600749883,0.2365617562100188,-0.05296642610407302
7.413102413009157,0.2359807524702941,-0.05348595785230092
7.585775750291819,0.23537709543142424,-0.053968799297596515
7.762471166286898,0.2347501300818264,-0.05441087280825418
7.9432823472427945,0.23409920457077663,-0.05480780587202218
8.128305161640972,0.2334236729069383,-0.05515491339229854
8.31763771102669,0.23272289794244205,-0.05544717918414913
8.511380382023743,0.23199625466173765,-0.05567923666724815
8.709635899560784,0.23124313379500605,-0.055845348758966816
8.912509381337431,0.23046294577644022,-0.055939386978208744
9.120108393559072,0.22965512506813282,-0.05595480977938967
9.332543007969884,0.22881913487065114,-0.05588464014642724
9.549925860214332,0.2279544722416143,-0.05572144248899794
9.772372209558078,0.22706067364369723,-0.05545729889795959
9.99999999999997,0.22613732094343875,-0.05508378483403489
10.23292992280751,0.22518404788203758,-0.05459194434407787
10.471285480508964,0.2242005470389047,-0.053972264922876816
10.715193052376032,0.22318657730812538,-0.05321465216607276
10.964781961431816,0.22214197190709914,-0.052308404391942426
11.220184543019599,0.22106664693544922,-0.051242187447189544
11.481536214968791,0.21996061050077698,-0.050004009955240285
11.748975549395258,0.2188239724259148,-0.04858119931566741
12.02264434617409,0.2176569545499656,-0.04696037882117429
12.302687708123775,0.21645990163249396,-0.04512744632500562
12.58925411794163,0.21523329286669945,-0.04306755496775674
12.882495516931296,0.21397775400311783,-0.040765096559357894
13.182567385564026,0.21269407008024704,-0.03820368831058909
13.489628825916489,0.21138319875232148,-0.0353661637198143
13.8038426460288,0.21004628419707944,-0.032234568545590044
14.125375446227492,0.20868467157756707,-0.028790162935029767
14.454397707459222,0.20729992202155836,-0.02501343093157702
14.79108388168202,0.20589382806975695,-0.020884098753871847
15.135612484362026,0.20446842952925945,-0.016381163418643707
15.488166189124756,0.20302602965146327,-0.01148293347293754
15.848931924611076,0.20156921153329757,-0.006167083800938687
16.218100973589237,0.2001008546169656,-0.0004107266728902409
16.595869074375543,0.19862415113590368,0.005809498599617298
16.982436524617377,0.19714262232302576,0.012517314856884997
17.378008287493685,0.19566013416123898,0.01973667243698069
17.782794100389157,0.19418091241548527,0.02749158787569174
18.197008586099763,0.19270955664021014,0.03580595313021586
18.620871366628602,0.19125105280643104,0.04470331256312374
19.0546071796324,0.1898107841391331,0.05420660512159687
19.49844599758038,0.1883945396996664,0.06433786951474807
19.95262314968872,0.18700852019093814,0.07511791077061299
20.417379446695215,0.18565934040795845,0.0865659273876868
20.892961308540315,0.18435402770612971,0.09869909942610222
21.37962089502224,0.18310001581892998,0.11153213934744804
21.877616239495442,0.1819051333307172,0.12507680923483178
22.387211385683308,0.18077758610563932,0.13934141021148705
22.90867652767764,0.179725932997217,0.15433025240388878
23.442288153199126,0.17875905422260197,0.1700431166023162
23.988329190194808,0.1778861118882189,0.1864747217486514
24.547089156850202,0.177116502305887,0.203614215363423
25.118864315095696,0.17645979994502936,0.22144470678942985
25.70395782768853,0.17592569312848588,0.23994286540158746
26.302679918953707,0.17552391189359823,0.2590786073959086
26.91534803926904,0.17526414879797297,0.2788148950934286
27.542287033381545,0.17515597383568587,0.29910767156726215
28.183829312644416,0.1752087450233127,0.3199059505800358
28.840315031265934,0.17543151658892728,0.34115207717955365
29.51209226666373,0.17583294702000554,0.3627821678832084
30.19951720402003,0.17642120946562492,0.38472673142680813
30.90295432513577,0.17720390711440276,0.4069114620132708
31.622776601683654,0.17818799615852654,0.42925818751468703
32.35936569296268,0.1793797187924202,0.4516859459384896
33.11311214825896,0.18078454838156816,0.47411215549717556
33.884415613920105,0.18240714848685477,0.4964538375995945
34.67368504525301,0.1842513468705373,0.518628848626471
35.481338923357384,0.18632012498117675,0.5405570758269443
36.30780547700997,0.18861562276315488,0.5621615551316866
37.15352290971708,0.19113915801016124,0.5833694738601369
38.01893963205595,0.19389125892579107,0.6041130286665068
38.90451449942788,0.1968717081039506,0.624330117887245
39.81071705534954,0.2000795958208911,0.6439648568955256
40.73802778041109,0.20351338034953517,0.6629679143268389
41.68693834703335,0.20717095296235902,0.6812966754154369
42.65795188015907,0.2110497053673592,0.6989152456526833
43.65158322401639,0.21514659750045523,0.7157943132320954
44.6683592150961,0.21945822385047153,0.7319108921761559
45.70881896148729,0.2239808767919334,0.7472479697199597
46.7735141287196,0.2287106057203402,0.7617940816648419
47.86300923226361,0.23364327110212896,0.7755428383037413
48.97788193684438,0.23877459284984853,0.7884924214879692
50.11872336272698,0.2441001926999833,0.80064507077682
51.286138399136235,0.24961563049915383,0.8120065736788712
52.480746024977,0.25531643449114527,0.8225857719983729
53.70317963702501,0.2611981258427284,0.8323940934259537
54.954087385762186,0.267256237753385,0.8414451148874746
56.23413251903463,0.27348632956716706,0.8497541618651402
57.54399373371541,0.2798839963491474,0.8573379459658936
58.88436553555861,0.2864448744096279,0.8642142414368694
60.255958607435474,0.29316464326161357,0.8704016000967388
61.65950018614791,0.3000390244857058,0.8759191032315123
63.09573444801901,0.30706377795559436,0.8807861483524806
64.56542290346522,0.3142346958501108,0.8850222682887443
66.06934480075925,0.3215475948470573,0.888646979844467
67.60829753919782,0.32899830686184744,0.891679659152242
69.18309709189329,0.33658266866195397,0.8941394408639763
70.79457843841342,0.34429651065731476,0.8960451384098462
72.44359600749863,0.3521356451379586,0.8974151826996196
74.13102413009136,0.3600958542035458,0.8982675768192875
75.85775750291798,0.3681728776054985,0.898619864474083
77.62471166286876,0.37636240070089594,0.8984891101348994
79.43282347242773,0.38466004269823284,0.8978918890502747
81.2830516164095,0.3930613453582709,0.8968442854844161
83.17637711026666,0.4015617622983048,0.8953618977291512
85.1138038202372,0.41015664903490917,0.8934598486117726
87.0963589956076,0.4188412538883403,0.891152800380132
89.12509381337408,0.4276107098609249,0.8884549729907057
91.20108393559049,0.4364600275916796,0.8853801649548384
93.3254300796986,0.44538408947980274,0.881941776013679
95.49925860214309,0.4543776450602898,0.8781528310143207
97.72372209558054,0.4634353077055458,0.874026004449479
99.99999999999946,0.4725515527172638,0.8695736452018038
102.32929922807486,0.4817207168628914,0.8648078011028475
104.71285480508938,0.49093699940054786,0.8597402429768876
107.15193052376004,0.500194464625187,0.8543824878923912
109.64781961431788,0.5094870459571158,0.8487458213898559
112.2018454301957,0.5188085515815725,0.8428413184950375
114.81536214968762,0.5281526716350442,0.8366798633619867
117.48975549395227,0.5375129869203426,0.8302721674216175
120.22644346174059,0.5468829791182984,0.8236287859393387
123.02687708123743,0.5562560424493785,0.8167601329101948
125.89254117941597,0.5656254967237322,0.8096764942423874
128.82495516931263,0.5749846017033295,0.8023880392004521
131.82567385563993,0.5843265726851703,0.7949048300979908
134.89628825916455,0.593644597200235,0.7872368302470057
138.03842646028764,0.6029318527091805,0.7793939101867302
141.25375446227457,0.6121815251629953,0.7713858522295053
144.54397707459188,0.62138682828516,0.7632223533748664
147.91083881681985,0.6305410234215859,0.7549130266555587
151.3561248436199,0.6396374397959242,0.7464674009907601
154.8816618912472,0.6486694950009834,0.7378949196323479
158.4893192461104,0.6576307155521383,0.7292049372995143
162.18100973589202,0.6665147573259093,0.7204067161054692
165.95869074375506,0.6753154257064418,0.7115094203872082
169.8243652461734,0.6840266952644846,0.7025221105554146
173.78008287493645,0.692642728797688,0.6934537360863767
177.82794100389117,0.7011578955675487,0.684313127781349
181.9700858609972,0.7095667885770729,0.6751089894210078
186.20871366628555,0.7178642407440626,0.6658498889435301
190.54607179632347,0.7260453398376772,0.6565442492743874
194.98445997580325,0.7341054420603708,0.6472003389341676
199.52623149688665,0.7420401841732063,0.6378262625477024
204.1737944669516,0.7498454940796037,0.6284299513735111
208.92961308540256,0.7575175998004997,0.6190191539671648
213.7962089502218,0.7650530367923755,0.6096014270857303
218.77616239495381,0.7724486535782852,0.6001841269330567
223.87211385683247,0.7797016156806196,0.5907744008374858
229.08676527677576,0.7868094078625298,0.5813791794446926
234.42288153199064,0.7937698347024231,0.5720051694989733
239.88329190194744,0.8005810195424874,0.5626588472765187
245.4708915685014,0.8072414018675377,0.5533464527242133
251.18864315095632,0.8137497331844313,0.5440739843474072
257.03957827688464,0.8201050714846915,0.5348471948800839
263.0267991895364,0.8263067743836927,0.5256715877610113
269.15348039268974,0.832354491038735,0.5165524144299485
275.4228703338148,0.8382481529554769,0.5074946724488897
281.8382931264435,0.843987963797564,0.49850310444477197
288.4031503126586,0.8495743883178719,0.4895821978621099
295.12092266663655,0.8550081405316537,0.480736185506753
301.9951720401995,0.8602901712521405,0.4719690468554013
309.02954325135687,0.8654216551078986,0.46328451009972255
316.2277660168357,0.8704039771586335,0.45468605488890435
323.593656929626,0.875238719222292,0.44617691573023815
331.13112148258875,0.8799276460214212,0.43776008600388416
338.84415613920015,0.884472691250942,0.4294383225452656
346.73685045252915,0.8888759436629582,0.4212141507465702
354.8133892335729,0.89313963325712,0.4130898701275532
363.0780547700987,0.8972661176575186,0.40506756032519187
371.5352290971698,0.9012578687493009,0.39714908745168775
380.1893963205584,0.90511745964024,0.3893361107707952
389.04514499427773,0.9088475520045536,0.38163008964341155
398.1071705534943,0.9124508838584076,0.3740322906947325
407.3802778041097,0.9159302578088824,0.3665437951570207
416.8693834703323,0.9192885298108044,0.3591655063440551
426.5795188015895,0.9225285984588085,0.3518981572156169
436.5158322401627,0.9256533948353618,0.3447423179928308
446.6835921509598,0.928665872929308,0.33769840378779376
457.0881896148716,0.9315690006337632,0.3307666822136329
467.7351412871947,0.9343657513269735,0.323947280943893
478.63009232263477,0.93705909603504,0.3172401951929317
489.7788193684425,0.9396519961711906,0.31064529509176664
501.1872336272685,0.9421473968425492,0.30416233293653455
512.861383991361,0.9445482207121361,0.2977909502893601
524.8074602497686,0.9468573624010252,0.2915306849140025
537.0317963702487,0.9490776834132758,0.28538097753108127
549.5408738576203,0.9512120075643056,0.2793411783800187
562.3413251903447,0.953263116891847,0.2734105535770265
575.4399373371524,0.9552337480274424,0.2675882912605219
588.8436553555844,0.9571265890055598,0.2618735075172743
602.559586074353,0.9589442764868582,0.2562652520843488
616.5950018614773,0.9606893933718156,0.25076251382354103
630.9573444801882,0.9623644667808581,0.2453642259664713
645.6542290346504,0.9639719663772733,0.2400692711298542
660.6934480075907,0.965514303009477,0.23487648610165435
676.0829753919763,0.9669938276496828,0.22978466639991804
691.8309709189309,0.9684128306066009,0.22479257060701519
707.9457843841321,0.9697735409904766,0.2198989244828564
724.4359600749841,0.9710781264095789,0.2151024248613683
741.3102413009113,0.9723286928780647,0.21040174333512568
758.5775750291774,0.973527284916062,0.2057955297335539
776.2471166286851,0.9746758858237311,0.20128241540055036
794.3282347242747,0.975776418112015,0.196861016277713
812.8305161640923,0.9768307440737622,0.19252993579964292
831.7637711026639,0.9778406664798595,0.18828776760799004
851.1380382023692,0.9788079293859633,0.1841330980910541
870.9635899560732,0.9797342190363793,0.1800645087558447
891.2509381337379,0.9806211648525351,0.17608057843954103
912.0108393559019,0.9814703404944046,0.17217988536729295
933.254300796983,0.9822832649840931,0.1683610090632598
954.9925860214277,0.9830614038816384,0.16462253212171463
977.2372209558022,0.9838061705038629,0.1609630418449345
999.9999999999912,0.9845189271778849,0.15738113175447568
1023.2929922807451,0.985200986521614,0.15387540298228078
1047.1285480508902,0.985853612744232,0.15044446554790702
1071.5193052375969,0.9864780229603204,0.14708693952798008
1096.4781961431752,0.9870753885118827,0.14380145612379577
1122.0184543019534,0.9876468362930945,0.1405866586327901
1148.1536214968723,0.9881934500731343,0.13744120332939624
1174.8975549395188,0.9887162718129473,0.13436376026060032
1202.264434617402,0.989216302972254,0.13135301396129564
1230.2687708123703,0.9896945058035462,0.12840766409432602
1258.9254117941557,0.9901518046301926,0.125526426019897
1288.2495516931222,0.9905890871061666,0.12270803129882529
1318.256738556395,0.9910072054552156,0.1199512281338918
1348.9628825916411,0.9914069776876145,0.11725478175335766
1380.384264602872,0.9917891887929319,0.11461747474050839
1412.537544622741,0.9921545919074718,0.1120381073128945
1445.4397707459138,0.9925039094553161,0.1095154975547493
1479.1083881681934,0.992837834262087,0.10704848160588314
1513.5612484361939,0.9931570306407401,0.10463591381017431
1548.8166189124668,0.9934621354488878,0.10227666682660923
1584.8931924610986,0.9937537591172954,0.0999696317056565
1621.8100973589146,0.9940324866493294,0.09771371793360538
1659.5869074375448,0.994298878591286,0.09550785344734544
1698.243652461728,0.9945534719736053,0.09335098462191983
1737.8008287493587,0.9947967812231078,0.0912420762330461
1778.2794100389056,0.9950292990464542,0.08918011139666672
1819.7008586099657,0.9952514972851193,0.08716409148746404
1862.0871366628492,0.9954638277422334,0.08519303603815624
1905.4607179632285,0.9956667229816988,0.08326598262127564
1949.844599758026,0.995860597100046,0.08138198671502189
1995.26231496886,0.9960458464715317,0.07954012155468256
2041.7379446695093,0.99622285046702,0.07773947797101242
2089.296130854019,0.9963919721472106,0.07597916421687413
2137.962089502211,0.9965535589308099,0.07425830578335416
2187.7616239495305,0.9967079432382607,0.07257604520648583
2238.721138568317,0.9968554431116494,0.07093154186563426
2290.86765276775,0.9969963628114344,0.06932397177452392
2344.2288153198983,0.9971309933906379,0.06775252736582174
2398.832919019466,0.9972596132471497,0.06621641727012251
2454.708915685005,0.9973824886547941,0.06471486609012318
2511.8864315095543,0.997499874273805,0.0632471141707151
2570.3957827688373,0.9976120136413605,0.061812417365668317
2630.2679918953545,0.9977191396428068,0.060410046801533356
2691.5348039268874,0.9978214749642136,0.05903928863933627
2754.2287033381376,0.9979192325268804,0.05769944383459964
2818.3829312644243,0.9980126159044026,0.056389827896180036
