Frequency,Gain,Phase
1.0,0.004188090634385643,1.5413958929640852
1.023292992280754,0.004285610127080869,1.5407147669962322
1.0471285480508994,0.004385398732707925,1.540017694510086
1.0715193052376062,0.0044875091335051425,1.539304306132128
1.0964781961431846,0.004591995226525009,1.5385742238539493
1.1220184543019631,0.004698912151050519,1.5378270608329732
1.1481536214968824,0.004808316316587157,1.5370624211885762
1.174897554939529,0.0049202654314395,1.5362798997935065
1.2022644346174125,0.005034818531881213,1.5354790820604935
1.2302687708123812,0.005152036011927087,1.5346595437239432
1.2589254117941668,0.005271979653715621,1.5338208506166107
1.2882495516931336,0.005394712658510456,1.5329625584411404
1.3182567385564068,0.005520299678328706,1.53208421253636
1.3489628825916533,0.005648806848204027,1.5311853476382131
1.3803842646028845,0.0057803018190918645,1.5302654876352142
1.412537544622754,0.00591485379142406,1.5293241453183066
1.445439770745927,0.006052533549319628,1.5283608221250027
1.4791083881682068,0.006193413495457918,1.5273750078776804
1.5135612484362075,0.0063375676866200955,1.5263661805159128
1.5488166189124806,0.006485071869904166,1.5253338058226995
1.5848931924611127,0.006636003519618233,1.524277337144475
1.6218100973589291,0.006790441874855973,1.5231962151047531
1.6595869074375598,0.006948467977757611,1.5220898673112806
1.6982436524617435,0.0071101647124587435,1.5209577080565595
1.7378008287493745,0.007275616844728602,1.519799138011597
1.7782794100389216,0.007444911062298205,1.5186135439127464
1.819700858609982,0.007618136015877847,1.5174002982414916
1.862087136662866,0.007795382360862162,1.5161587588970313
1.9054607179632457,0.007976742799719555,1.514888268861515
1.9498445997580438,0.008162312125061674,1.5135881558577826
1.995262314968878,0.008352187263386579,1.5122577319994526
2.0417379446695274,0.008546467319488021,1.5108962934332104
2.0892961308540374,0.008745253621521105,1.5095031199731381
2.13796208950223,0.008948649766712582,1.50807747472693
2.1877616239495503,0.009156761667702124,1.5066186037138378
2.238721138568337,0.009369697599498105,1.5051257354741807
2.2908676527677705,0.009587568247029304,1.5035980806702662
2.3442288153199193,0.009810486753270769,1.5020348316785546
2.3988329190194877,0.01003856876791931,1.5004351621729044
2.4547089156850275,0.010271932496590693,1.4987982266987407
2.511886431509577,0.010510698750507105,1.4971231602379733
2.5703957827688604,0.010754990996639633,1.4954090777645073
2.630267991895378,0.01100493540826635,1.4936550737901793
2.691534803926912,0.011260660915902207,1.4918602219009551
2.7542287033381627,0.011522299258551938,1.4900235742832235
2.8183829312644497,0.011789985035232304,1.4881441612400286
2.8840315031266015,0.012063855756703979,1.486220990697073
2.951209226666381,0.01234405189734776,1.4842530476983382
3.0199517204020117,0.012630716947112985,1.4822392938911633
3.0902954325135856,0.012923997463459177,1.4801786670006252
3.162277660168374,0.01322404312320434,1.478070080293074
3.2359365692962774,0.013531006774185244,1.4759124220286761
3.3113112148259054,0.0138450444866263,1.4737045549028196
3.38844156139202,0.014166315604104175,1.4714453154762508
3.4673685045253104,0.014494982793985287,1.46913351359381
3.5481338923357484,0.014831212097202534,1.4667679317916427
3.630780547701007,0.015175172977225612,1.4643473246927765
3.7153522909717185,0.015527038368067307,1.4618704183909548
3.801893963205605,0.01588698472115414,1.4593359098226366
3.8904514499427987,0.016255192050875736,1.4567424661270811
3.9810717055349647,0.016631843978611574,1.4540887239944462
4.073802778041119,0.01701712777501724,1.451373289001852
4.168693834703346,0.017411234400334465,1.4485947349373725
4.265795188015918,0.017814358542470137,1.4457516031119348
4.365158322401651,0.01822669865256906,1.4428424016591372
4.466835921509622,0.018648456977783112,1.4398656048230065
4.570881896148741,0.01907983959091627,1.4368196522337517
4.677351412871972,0.019521056416599267,1.4337029481715957
4.786300923226373,0.019972321253621524,1.430513860818796
4.897788193684452,0.020433851793018182,1.4272507215000054
5.011872336272712,0.02090586963148006,1.4239118239111583
5.128613839913638,0.02138860027962084,1.4204954233371103
5.248074602497715,0.021882273164600688,1.4169997358583095
5.370317963702516,0.02238712162656798,1.4134229375468255
5.495408738576233,0.022903382908340094,1.4097631636521197
5.623413251903478,0.02343129813770171,1.406018507777004
5.754399373371556,0.02397111230165293,1.4021870210443008
5.888436553555876,0.024523074211890365,1.3982667112547975
6.025595860743564,0.02508743646075266,1.3942555420371625
6.165950018614807,0.02566445536680553,1.390151431990589
6.309573444801917,0.02625439090918278,1.3859522538210298
6.4565422903465395,0.026857506649736212,1.381655833471989
6.606934480075944,0.02747406964198015,1.3772599492509654
6.7608297539198015,0.028104350325745348,1.3727623309527681
6.918309709189348,0.028748622406380445,1.3681606589810689
7.079457843841362,0.02940716271725915,1.3634525634697092
7.244359600749883,0.030080251064265616,1.358635623405466
7.413102413009157,0.0307681700508399,1.3537073657541454
7.585775750291819,0.03147120488206944,1.348665264592104
7.762471166286898,0.03218964314621112,1.3435067402455052
7.9432823472427945,0.032923774571921256,1.338229158439873
8.128305161640972,0.03367389075935788,1.3328298294627734
8.31763771102669,0.03444028488320005,1.3273060073427505
8.511380382023743,0.03522325136550447,1.3216548890479582
8.709635899560784,0.036023085516187076,1.315873613708293
8.912509381337431,0.036840083138779844,1.3099592618652036
9.120108393559072,0.03767454009896861,1.303908854753784
9.332543007969884,0.03852675185326678,1.2977193536221994
9.549925860214332,0.03939701293502331,1.2913876590940072
9.772372209558078,0.04028561639480036,1.2849106105794619
9.99999999999997,0.04119285319198745,1.278284985742494
10.23292992280751,0.04211901153434601,1.2715075000306857
10.471285480508964,0.04306437616199926,1.2645748062762658
10.715193052376032,0.04402922757220142,1.2574834943769044
10.964781961431816,0.04501384118103481,1.250230091065898
11.220184543019599,0.04601848641799802,1.2428110597822402
11.481536214968791,0.04704342574926162,1.2352228006520116
11.748975549395258,0.04808891362518385,1.2274616505935811
12.02264434617409,0.04915519534749834,1.2195238835602147
12.302687708123775,0.05024250585141213,1.2114057109349026
12.58925411794163,0.05135106839768811,1.2031032820935068
12.882495516931296,0.052481093169635645,1.1946126851537247
13.182567385564026,0.05363277576979924,1.185929947928854
13.489628825916489,0.05480629561102488,1.177051039106933
13.8038426460288,0.05600181419650083,1.1679718696775265
14.125375446227492,0.05721947328332096,1.1586882946302322
14.454397707459222,0.05845939292411306,1.14919611495088
14.79108388168202,0.059721669381319106,1.1394910799434186
15.135612484362026,0.06100637290881757,1.129568889907584
15.488166189124756,0.06231354539575511,1.119425199204666
15.848931924611076,0.06364319786771103,1.1090556197459727
16.218100973589237,0.06499530784067473,1.0984557249409739
16.595869074375543,0.06636981652378102,1.0876210541445375
16.982436524617377,0.0677666258673438,1.0765471176451447
17.378008287493685,0.06918559545346882,1.0652294022384652
17.782794100389157,0.07062653922743185,1.0536633774331567
18.197008586099763,0.07208922206910387,1.041844502338171
18.620871366628602,0.07357335620500646,1.0297682332831901
19.0546071796324,0.07507859746311893,1.0174300322259855
19.49844599758038,0.07660454137435327,1.004825376002469
19.95262314968872,0.07815071912669454,0.9919497664768707
20.417379446695215,0.07971659338039364,0.9787987416507883
20.892961308540315,0.08130155395532657,0.9653678877906797
21.37962089502224,0.08290491340472111,0.9516528526336179
21.877616239495442,0.08452590249292137,0.9376493597306607
22.387211385683308,0.08616366559873162,0.923353223985882
22.90867652767764,0.08781725607016887,0.9087603684468001
23.442288153199126,0.08948563156116478,0.8938668423984547
23.988329190194808,0.09116764938589325,0.8786688408085676
24.547089156850202,0.0928620619319482,0.8631627251648586
25.118864315095696,0.0945675121795357,0.8473450457374971
25.70395782768853,0.09628252938013283,0.831212565289647
26.302679918953707,0.09800552495464912,0.8147622842469026
26.91534803926904,0.09973478867792354,0.797991467321918
27.542287033381545,0.10146848522329967,0.7808976715735533
28.183829312644416,0.10320465114791251,0.7634787758601761
28.840315031265934,0.10494119240603517,0.7457330116243256
29.51209226666373,0.10667588248417656,0.7276589949206298
30.19951720402003,0.10840636125737677,0.7092557595706673
30.90295432513577,0.11013013467104567,0.6905227912974599
31.622776601683654,0.11184457535646056,0.6714600626585954
32.35936569296268,0.11354692429034509,0.6520680685608757
33.11311214825896,0.11523429360947136,0.6323478621012444
33.884415613920105,0.11690367068958961,0.6123010904390991
34.67368504525301,0.11855192359384671,0.5919300303645564
35.481338923357384,0.12017580798883849,0.5712376231866976
36.30780547700997,0.12177197561623629,0.5502275085262077
37.15352290971708,0.1233369843942375,0.5289040565592946
38.01893963205595,0.12486731020569879,0.507272398225649
38.90451449942788,0.12635936040857595,0.48533845288383237
39.81071705534954,0.12780948907920797,0.46310895287444565
40.73802778041109,0.12921401397013885,0.440591464436247
41.68693834703335,0.13056923513185578,0.4177944044146361
42.65795188015907,0.13187145511246928,0.3947270522071131
43.65158322401639,0.1331170006116065,0.3713995564078062
44.6683592150961,0.13430224542545213,0.34782293564408484
45.70881896148729,0.13542363447995845,0.3240090731435032
46.7735141287196,0.13647770870993298,0.2999707046292601
47.86300923226361,0.13746113050430356,0.27572139921706523
48.97788193684438,0.13837070940377372,0.2512755330751931
50.11872336272698,0.13920342770774954,0.22664825571149014
51.286138399136235,0.13995646562428254,0.20185544886448153
52.480746024977,0.1406272255811384,0.17691367809819225
53.70317963702501,0.1412133553091457,0.15184013732900853
54.954087385762186,0.14171276931158308,0.12665258664456142
56.23413251903463,0.1421236683461456,0.10136928390547735
57.54399373371541,0.14244455656918184,0.07600891074703117
58.88436553555861,0.14267425602524492,0.05059049371523479
60.255958607435474,0.1428119182079077,0.02513332137680719
61.65950018614791,0.14285703246922754,-0.0003431416687728565
63.09573444801901,0.1428094311137532,-0.025819342877488313
64.56542290346522,0.14266929107679086,-0.05127573090399388
66.06934480075925,0.1424371321537452,-0.076692844730426
67.60829753919782,0.1421138118155434,-0.10205140171175342
69.18309709189329,0.14170051671219275,-0.12733238349336115
70.79457843841342,0.1411987510302237,-0.15251711880480684
72.44359600749863,0.14061032192811504,-0.1775873622037024
74.13102413009136,0.13993732232501854,-0.20252536793288287
75.85775750291798,0.13918211136076394,-0.22731395815933816
77.62471166286876,0.138347292878207,-0.25193658498116966
79.43282347242773,0.13743569230186103,-0.2763773857151825
81.2830516164095,0.1364503322992515,-0.30062123110868233
83.17637711026666,0.1353944076137767,-0.32465376625065356
85.1138038202372,0.1342712594506519,-0.3484614440860852
87.0963589956076,0.13308434978166528,-0.37203155155947343
89.12509381337408,0.13183723591115146,-0.39535222852662766
91.20108393559049,0.13053354561611064,-0.4184124796755608
93.3254300796986,0.12917695313920707,-0.4412021797857713
95.49925860214309,0.1277711562759015,-0.46371207272952447
97.72372209558054,0.12631985475762839,-0.48593376467830435
99.99999999999946,0.12482673009301479,-0.5078597120224234
102.32929922807486,0.12329542698983183,-0.5294832045423405
104.71285480508938,0.12172953644266966,-0.5507983443873732
107.15193052376004,0.12013258053605058,-0.5718000214223663
109.64781961431788,0.1185079989804606,-0.5924838854968613
112.2018454301957,0.1168591373700457,-0.6128463161758874
114.81536214968762,0.11518923712572245,-0.6328843904482763
117.48975549395227,0.11350142706633122,-0.652595848898881
120.22644346174059,0.11179871653316689,-0.6719790607968411
123.02687708123743,0.11008398997962779,-0.6910329885144396
125.89254117941597,0.1083600029276094,-0.7097571516514511
128.82495516931263,0.10662937918533519,-0.728151591199307
131.82567385563993,0.1048946092172445,-0.7462168340389066
134.89628825916455,0.10315804955498303,-0.7639538580262718
138.03842646028764,0.10142192313911381,-0.7813640578821461
141.25375446227457,0.09968832048351706,-0.7984492120656057
144.54397707459188,0.09795920155825003,-0.8152114507781354
147.91083881681985,0.09623639829156631,-0.8316532252136711
151.3561248436199,0.09452161759756565,-0.8477772781420099
154.8816618912472,0.09281644484230318,-0.8635866158877425
158.4893192461104,0.09112234766790747,-0.8790844817444984
162.18100973589202,0.08944068010115123,-0.8942743308446954
165.95869074375506,0.08777268687982503,-0.9091598064880727
169.8243652461734,0.08611950793705933,-0.9237447179178443
173.78008287493645,0.08448218299031399,-0.9380330195212329
177.82794100389117,0.08286165618803629,-0.9520287914211483
181.9700858609972,0.08125878077291665,-0.9657362214177566
186.20871366628555,0.07967432372620907,-0.9791595882323548
190.54607179632347,0.0781089703627072,-0.9923032460011817
194.98445997580325,0.07656332885066813,-1.005171609963365
199.52623149688665,0.07503793463525063,-1.0177691432848976
204.1737944669516,0.07353325474789697,-1.0301003449592834
208.92961308540256,0.07204969198754328,-1.0421697387250115
213.7962089502218,0.07058758896262432,-1.0539818629403228
218.77616239495381,0.06914723198555206,-1.065541261356537
223.87211385683247,0.0677288548137319,-1.076852474732557
229.08676527677576,0.06633264223325094,-1.0879200332348251
234.42288153199064,0.06495873348316215,-1.0987484495689939
239.88329190194744,0.0636072255198185,-1.1093422127917545
245.4708915685014,0.06227817612200825,-1.119705782753598
251.18864315095632,0.06097160683873067,-1.1298435851257131
257.03957827688464,0.059687505782354495,-1.1397600069667122
263.0267991895364,0.05842583027063547,-1.1494593927873544
269.15348039268974,0.057186509321663005,-1.1589460410739292
275.4228703338148,0.055969446006266,-1.1682242012333797
281.8382931264435,0.05477451966276285,-1.1772980709256247
288.4031503126586,0.05360158797919422,-1.1861717937508311
295.12092266663655,0.052450488948351734,-1.1948494572615944
301.9951720401995,0.05132104270101778,-1.2033350912720913
309.02954325135687,0.05021305322287457,-1.211632666438282
316.2277660168357,0.04912630996053334,-1.2197460930851396
323.593656929626,0.048060589322085234,-1.2276792202586815
331.13112148258875,0.04701565607749149,-1.2354358349822738
338.84415613920015,0.045991264664020114,-1.243019661698264
346.73685045252915,0.04498716040180079,-1.2504343618774851
354.8133892335729,0.04400308062442051,-1.257683533780566
363.0780547700987,0.04303875572931628,-1.2647707123562704
371.5352290971698,0.042093910152548625,-1.271699369263296
380.1893963205584,0.04116826327235837,-1.2784729130030794
389.04514499427773,0.04026153024572517,-1.2850946891521886
398.1071705534943,0.03937342278195995,-1.2915679806838407
407.3802778041097,0.038503649857176955,-1.2978960083689761
416.8693834703323,0.03765191837330756,-1.3040819312481244
426.5795188015895,0.03681793376513517,-1.3101288471660688
436.5158322401627,0.036001400558652946,-1.3160397933619907
446.6835921509598,0.03520202288387309,-1.3218177471084367
457.0881896148716,0.0344195049450475,-1.3274656263930185
467.7351412871947,0.03365355145109754,-1.332986290637311
478.63009232263477,0.032903868008893306,-1.3383825414479027
489.7788193684425,0.03217016148187346,-1.3436571233950083
501.1872336272685,0.03145214031635095,-1.348812724814476
512.861383991361,0.03074951483771342,-1.3538519786293954
524.8074602497686,0.03006199751859501,-1.3587774631878753
537.0317963702487,0.02938930322097098,-1.3635917031138685
549.5408738576203,0.02873114941400809,-1.3682971701682243
562.3413251903447,0.02808725636939021,-1.3728962841174148
575.4399373371524,0.02745734733573187,-1.3773914136076266
588.8436553555844,0.026841148693591273,-1.381784877042136
602.559586074353,0.026238390092498173,-1.3860789434600893
616.5950018614773,0.02564880457132185,-1.3902758334150027
630.9573444801882,0.025072128663219097,-1.3943777198514589
645.6542290346504,0.024508102486321324,-1.3983867289786442
660.6934480075907,0.023956469821244733,-1.4023049411395085
676.0829753919763,0.02341697817643543,-1.4061343916744558
691.8309709189309,0.022889378842295142,-1.4098770717786047
707.9457843841321,0.02237342693496932,-1.4135349293517547
724.4359600749841,0.021868881430620955,-1.4171098698403004
741.3102413009113,0.021375505190957413,-1.4206037570704213
758.5775750291774,0.020893064980725427,-1.4240184140719645
776.2471166286851,0.020421331477841025,-1.4273556238925025
794.3282347242747,0.01996007927677456,-1.4306171304011235
812.8305161640923,0.019509086885768766,-1.433804639081575
831.7637711026639,0.019068136718427203,-1.4369198178144307
851.1380382023692,0.018637015080172903,-1.4399642976480063
870.9635899560732,0.018215512150041864,-1.442939673557801
891.2509381337379,0.017803421958242988,-1.4458475051942739
912.0108393559019,0.017400542359885474,-1.4486893176188098
933.254300796983,0.01700667500524559,-1.4514666020277645
954.9925860214277,0.01662162530691824,-1.4541808164645036
977.2372209558022,0.016245202404173112,-1.4568333865193885
999.9999999999912,0.01587721912481236,-1.4594257060176765
1023.2929922807451,0.01551749194480426,-1.4619591376953376
1047.1285480508902,0.01516584094594729,-1.4644350138628004
1071.5193052375969,0.014822089771799697,-1.4668546370566677
1096.4781961431752,0.014486065582092197,-1.4692192806794515
1122.0184543019534,0.014157599005824436,-1.471530189627397
1148.1536214968723,0.013836524093230692,-1.4737885809064795
1174.8975549395188,0.013522678266785876,-1.4759956442366635
1202.264434617402,0.013215902271409272,-1.478152542644535
1230.2687708123703,0.012916040124011178,-1.4802604130444135
1258.9254117941557,0.012622939062515885,-1.482320366808074
1288.2495516931222,0.012336449494483545,-1.4843334903232042
1318.256738556395,0.012056424945443553,-1.4863008455407323
1348.9628825916411,0.011782722007042546,-1.4882234705111737
1380.384264602872,0.011515200285101458,-1.4901023799101347
1412.537544622741,0.011253722347668055,-1.4919385655531305
1445.4397707459138,0.010998153673143706,-1.4937329968998705
1479.1083881681934,0.010748362598556258,-1.4954866215481641
1513.5612484361939,0.01050422026804429,-1.4972003657176134
1548.8166189124668,0.010265600581612199,-1.4988751347232463
1584.8931924610986,0.010032380144209667,-1.5005118134392592
1621.8100973589146,0.009804438215184176,-1.5021112667530292
1659.5869074375448,0.009581656658150237,-1.5036743400095613
1698.243652461728,0.00936391989131465,-1.505201859446535
1737.8008287493587,0.0091511148382929,-1.5066946326201145
1778.2794100389056,0.008943130879448067,-1.5081534488216888
1819.7008586099657,0.008739859803780076,-1.5095790794857007
1862.0871366628492,0.00854119576138971,-1.5109722785887347
1905.4607179632285,0.008347035216539064,-1.5123337830400196
1949.844599758026,0.008157276901327018,-1.513664313063509
1995.26231496886,0.00797182176999608,-1.5149645725717018
2041.7379446695093,0.007790572953884166,-1.5162352495313574
2089.296130854019,0.007613435717033125,-1.5174770163212639
2137.962089502211,0.007440317412463479,-1.5186905300822149
2187.7616239495305,0.007271127439123208,-1.519876433059347
2238.721138568317,0.0071057771995165706,-1.5210353529369915
2290.86765276775,0.0069441800580174835,-1.5221679031661874
2344.2288153198983,0.006786251299870509,-1.5232746832850055
2398.832919019466,0.006631908090881204,-1.5243562792318275
2454.708915685005,0.006481069437796379,-1.5254132636517261
2511.8864315095543,0.00633365614937374,-1.526446196196084
2570.3957827688373,0.006189590798139357,-1.5274556238155945
2630.2679918953545,0.006048797682830551,-1.5284420810467787
2691.5348039268874,0.005911202791520849,-1.5294060902921545
